Data from USB4A006151_12-59-42-932.txt Node
Date: Tue May 09 12:59:42 EDT 2023
User: Emmanuel
Spectrometer: USB4A00615
Scans to average: 1
Trigger mode: 4
Integration Time (sec): 2.400000E-2
Electric dark correction enabled: true
Boxcar width: 0
XAxis mode: Wavelengths
Number of Pixels in Spectrum: 3648
>>>>>Begin Spectral Data<<<<<
346.606	33366.87
346.818	33366.87
347.029	33366.87
347.241	-33.45
347.452	-29.35
347.664	3.41
347.876	-0.68
348.087	-17.07
348.299	13.65
348.51	46.42
348.722	-31.4
348.933	34.13
349.145	-4.78
349.356	27.99
349.568	-17.07
349.779	-29.35
349.991	-25.26
350.202	1.37
350.414	36.18
350.625	34.13
350.836	25.94
351.048	19.8
351.259	36.18
351.471	40.28
351.682	-12.97
351.893	71
352.105	93.52
352.316	-25.26
352.527	58.71
352.739	-45.74
352.95	40.28
353.161	19.8
353.372	32.08
353.584	30.04
353.795	11.61
354.006	-2.73
354.217	-27.31
354.429	7.51
354.64	34.13
354.851	-17.07
355.062	42.32
355.274	23.89
355.485	36.18
355.696	85.33
355.907	54.61
356.118	25.94
356.329	-8.87
356.54	50.52
356.752	46.42
356.963	64.85
357.174	-10.92
357.385	93.52
357.596	48.47
357.807	-55.98
358.018	42.32
358.229	-49.83
358.44	15.7
358.651	11.61
358.862	13.65
359.073	64.85
359.284	77.14
359.495	81.24
359.706	62.8
359.917	64.85
360.128	1.37
360.339	19.8
360.55	-0.68
360.761	36.18
360.972	42.32
361.182	58.71
361.393	81.24
361.604	56.66
361.815	-4.78
362.026	48.47
362.237	36.18
362.447	46.42
362.658	25.94
362.869	34.13
363.08	-31.4
363.291	46.42
363.501	44.37
363.712	71
363.923	103.76
364.134	15.7
364.344	154.96
364.555	144.72
364.766	290.13
364.976	714.06
365.187	1162.56
365.398	1559.87
365.608	2174.26
365.819	2645.29
366.03	3003.69
366.24	3349.79
366.451	3491.1
366.662	3194.15
366.872	2569.52
367.083	2364.72
367.293	1844.54
367.504	1377.6
367.714	1041.73
367.925	763.21
368.135	507.21
368.346	306.51
368.557	185.68
368.767	130.39
368.977	130.39
369.188	-6.83
369.398	75.09
369.609	-19.11
369.819	38.23
370.03	52.56
370.24	34.13
370.451	52.56
370.661	36.18
370.871	23.89
371.082	99.67
371.292	87.38
371.502	52.56
371.713	13.65
371.923	83.28
372.133	-15.02
372.344	-47.79
372.554	-21.16
372.764	-17.07
372.975	34.13
373.185	48.47
373.395	1.37
373.605	30.04
373.816	71
374.026	-2.73
374.236	17.75
374.446	56.66
374.656	122.2
374.867	83.28
375.077	128.34
375.287	38.23
375.497	15.7
375.707	-6.83
375.917	64.85
376.127	-29.35
376.338	-0.68
376.548	-10.92
376.758	3.41
376.968	81.24
377.178	54.61
377.388	25.94
377.598	111.96
377.808	7.51
378.018	68.95
378.228	-8.87
378.438	36.18
378.648	23.89
378.858	9.56
379.068	66.9
379.278	89.43
379.488	116.05
379.698	25.94
379.908	1.37
380.118	-15.02
380.327	32.08
380.537	13.65
380.747	97.62
380.957	50.52
381.167	62.8
381.377	44.37
381.587	71
381.796	-31.4
382.006	157.01
382.216	64.85
382.426	9.56
382.636	25.94
382.845	85.33
383.055	54.61
383.265	-6.83
383.475	107.86
383.684	50.52
383.894	157.01
384.104	21.84
384.313	46.42
384.523	17.75
384.733	5.46
384.942	87.38
385.152	89.43
385.362	56.66
385.571	13.65
385.781	11.61
385.991	73.04
386.2	19.8
386.41	9.56
386.619	11.61
386.829	46.42
387.038	120.15
387.248	1.37
387.457	54.61
387.667	50.52
387.876	30.04
388.086	-0.68
388.295	30.04
388.505	30.04
388.714	36.18
388.924	58.71
389.133	34.13
389.343	52.56
389.552	38.23
389.762	27.99
389.971	73.04
390.18	46.42
390.39	87.38
390.599	42.32
390.808	142.68
391.018	17.75
391.227	19.8
391.436	79.19
391.646	21.84
391.855	75.09
392.064	32.08
392.274	56.66
392.483	52.56
392.692	34.13
392.901	21.84
393.111	25.94
393.32	19.8
393.529	81.24
393.738	25.94
393.947	68.95
394.157	1.37
394.366	38.23
394.575	17.75
394.784	5.46
394.993	3.41
395.202	17.75
395.411	142.68
395.62	85.33
395.83	19.8
396.039	23.89
396.248	159.06
396.457	17.75
396.666	36.18
396.875	32.08
397.084	15.7
397.293	93.52
397.502	95.57
397.711	136.53
397.92	56.66
398.129	44.37
398.338	71
398.547	68.95
398.756	144.72
398.965	116.05
399.174	36.18
399.382	13.65
399.591	107.86
399.8	105.81
400.009	152.91
400.218	91.48
400.427	71
400.636	62.8
400.844	128.34
401.053	89.43
401.262	23.89
401.471	138.58
401.68	32.08
401.888	116.05
402.097	64.85
402.306	126.29
402.515	77.14
402.723	122.2
402.932	68.95
403.141	132.44
403.35	128.34
403.558	204.11
403.767	179.54
403.976	224.59
404.184	1070.4
404.393	3712.28
404.602	7093.48
404.81	9084.11
405.019	10132.67
405.227	10538.16
405.436	10529.97
405.645	9981.12
405.853	9665.73
406.062	8477.91
406.27	5244.17
406.479	2563.37
406.687	742.73
406.896	365.9
407.104	171.35
407.313	228.69
407.521	445.77
407.73	675.15
407.938	1002.82
408.147	1064.26
408.355	996.68
408.563	1021.25
408.772	1031.49
408.98	859.46
409.189	816.46
409.397	507.21
409.605	286.03
409.814	163.15
410.022	146.77
410.23	128.34
410.439	146.77
410.647	23.89
410.855	105.81
411.064	118.1
411.272	95.57
411.48	99.67
411.688	91.48
411.897	144.72
412.105	169.3
412.313	105.81
412.521	25.94
412.73	146.77
412.938	21.84
413.146	46.42
413.354	73.04
413.562	122.2
413.77	85.33
413.979	52.56
414.187	71
414.395	75.09
414.603	44.37
414.811	161.11
415.019	68.95
415.227	44.37
415.435	109.91
415.643	142.68
415.851	220.5
416.059	91.48
416.267	171.35
416.475	142.68
416.683	148.82
416.891	87.38
417.099	193.87
417.307	42.32
417.515	150.87
417.723	19.8
417.931	93.52
418.139	107.86
418.347	114
418.555	111.96
418.763	-0.68
418.971	81.24
419.179	30.04
419.386	114
419.594	206.16
419.802	140.63
420.01	183.63
420.218	243.03
420.426	189.78
420.633	171.35
420.841	187.73
421.049	128.34
421.257	130.39
421.464	99.67
421.672	77.14
421.88	124.24
422.088	105.81
422.295	93.52
422.503	54.61
422.711	34.13
422.918	73.04
423.126	120.15
423.334	44.37
423.541	120.15
423.749	44.37
423.956	25.94
424.164	-23.21
424.372	105.81
424.579	75.09
424.787	19.8
424.994	71
425.202	142.68
425.409	187.73
425.617	-23.21
425.824	32.08
426.032	120.15
426.239	66.9
426.447	48.47
426.654	93.52
426.862	146.77
427.069	212.31
427.277	68.95
427.484	140.63
427.692	107.86
427.899	173.39
428.106	128.34
428.314	77.14
428.521	150.87
428.728	116.05
428.936	122.2
429.143	54.61
429.351	171.35
429.558	132.44
429.765	177.49
429.972	140.63
430.18	140.63
430.387	140.63
430.594	202.07
430.801	177.49
431.009	163.15
431.216	109.91
431.423	85.33
431.63	124.24
431.838	44.37
432.045	126.29
432.252	126.29
432.459	159.06
432.666	97.62
432.873	148.82
433.081	206.16
433.288	267.6
433.495	343.38
433.702	335.18
433.909	345.42
434.116	458.06
434.323	666.96
434.53	765.26
434.737	845.13
434.944	1490.24
435.151	6278.39
435.358	17507.4
435.565	27286.45
435.772	35101.5
435.979	41009.89
436.186	43545.28
436.393	42461.9
436.6	41132.77
436.807	36262.7
437.014	28494.75
437.221	15441
437.428	5946.62
437.635	1946.94
437.841	623.95
438.048	337.23
438.255	292.18
438.462	290.13
438.669	261.46
438.876	249.17
439.082	212.31
439.289	191.83
439.496	189.78
439.703	114
439.91	132.44
440.116	138.58
440.323	183.63
440.53	148.82
440.737	132.44
440.943	91.48
441.15	58.71
441.357	93.52
441.563	89.43
441.77	103.76
441.977	23.89
442.183	79.19
442.39	83.28
442.597	79.19
442.803	101.72
443.01	50.52
443.216	93.52
443.423	66.9
443.63	62.8
443.836	66.9
444.043	97.62
444.249	128.34
444.456	7.51
444.662	79.19
444.869	134.48
445.075	48.47
445.282	58.71
445.488	46.42
445.695	134.48
445.901	19.8
446.107	-17.07
446.314	111.96
446.52	54.61
446.727	89.43
446.933	23.89
447.139	36.18
447.346	89.43
447.552	21.84
447.759	46.42
447.965	64.85
448.171	68.95
448.378	38.23
448.584	50.52
448.79	54.61
448.996	32.08
449.203	68.95
449.409	3.41
449.615	38.23
449.821	68.95
450.028	114
450.234	109.91
450.44	116.05
450.646	134.48
450.852	116.05
451.059	77.14
451.265	130.39
451.471	89.43
451.677	44.37
451.883	107.86
452.089	109.91
452.295	66.9
452.502	87.38
452.708	-49.83
452.914	71
453.12	44.37
453.326	7.51
453.532	91.48
453.738	-31.4
453.944	30.04
454.15	126.29
454.356	54.61
454.562	25.94
454.768	126.29
454.974	64.85
455.18	73.04
455.386	9.56
455.592	114
455.798	52.56
456.003	17.75
456.209	-10.92
456.415	58.71
456.621	54.61
456.827	3.41
457.033	27.99
457.239	23.89
457.444	103.76
457.65	21.84
457.856	34.13
458.062	23.89
458.268	89.43
458.473	21.84
458.679	25.94
458.885	13.65
459.091	103.76
459.296	52.56
459.502	116.05
459.708	75.09
459.914	17.75
460.119	7.51
460.325	5.46
460.531	36.18
460.736	-0.68
460.942	30.04
461.147	109.91
461.353	79.19
461.559	44.37
461.764	17.75
461.97	85.33
462.175	60.76
462.381	91.48
462.587	-92.84
462.792	68.95
462.998	44.37
463.203	91.48
463.409	95.57
463.614	-12.97
463.82	77.14
464.025	60.76
464.231	54.61
464.436	68.95
464.641	11.61
464.847	34.13
465.052	15.7
465.258	50.52
465.463	25.94
465.669	1.37
465.874	73.04
466.079	9.56
466.285	105.81
466.49	25.94
466.695	89.43
466.901	42.32
467.106	17.75
467.311	25.94
467.516	52.56
467.722	-4.78
467.927	27.99
468.132	11.61
468.338	68.95
468.543	9.56
468.748	27.99
468.953	32.08
469.158	42.32
469.364	-47.79
469.569	83.28
469.774	109.91
469.979	40.28
470.184	25.94
470.389	23.89
470.594	17.75
470.8	83.28
471.005	77.14
471.21	118.1
471.415	-19.11
471.62	87.38
471.825	1.37
472.03	21.84
472.235	25.94
472.44	126.29
472.645	25.94
472.85	52.56
473.055	17.75
473.26	58.71
473.465	36.18
473.67	85.33
473.875	15.7
474.08	50.52
474.285	23.89
474.49	85.33
474.695	81.24
474.899	21.84
475.104	44.37
475.309	30.04
475.514	66.9
475.719	34.13
475.924	87.38
476.128	130.39
476.333	128.34
476.538	66.9
476.743	-43.69
476.948	36.18
477.152	54.61
477.357	71
477.562	15.7
477.767	-21.16
477.971	62.8
478.176	1.37
478.381	52.56
478.585	34.13
478.79	-15.02
478.995	95.57
479.199	-15.02
479.404	58.71
479.609	42.32
479.813	85.33
480.018	73.04
480.223	42.32
480.427	27.99
480.632	-27.31
480.836	85.33
481.041	138.58
481.245	11.61
481.45	17.75
481.654	50.52
481.859	154.96
482.063	23.89
482.268	17.75
482.472	54.61
482.677	83.28
482.881	17.75
483.086	-35.5
483.29	79.19
483.495	95.57
483.699	44.37
483.903	13.65
484.108	48.47
484.312	103.76
484.517	38.23
484.721	23.89
484.925	91.48
485.13	3.41
485.334	36.18
485.538	23.89
485.743	30.04
485.947	50.52
486.151	56.66
486.355	7.51
486.56	44.37
486.764	27.99
486.968	30.04
487.172	62.8
487.377	56.66
487.581	101.72
487.785	30.04
487.989	46.42
488.193	42.32
488.397	62.8
488.602	9.56
488.806	36.18
489.01	42.32
489.214	11.61
489.418	13.65
489.622	68.95
489.826	68.95
490.03	101.72
490.234	56.66
490.438	132.44
490.642	109.91
490.846	179.54
491.05	175.44
491.254	251.22
491.458	341.33
491.662	206.16
491.866	232.79
492.07	181.59
492.274	114
492.478	173.39
492.682	132.44
492.886	36.18
493.09	23.89
493.294	95.57
493.498	34.13
493.701	62.8
493.905	40.28
494.109	87.38
494.313	1.37
494.517	-39.59
494.721	87.38
494.924	36.18
495.128	34.13
495.332	116.05
495.536	-4.78
495.739	46.42
495.943	62.8
496.147	46.42
496.351	25.94
496.554	54.61
496.758	-6.83
496.962	116.05
497.165	-21.16
497.369	52.56
497.573	-15.02
497.776	101.72
497.98	-4.78
498.184	66.9
498.387	71
498.591	30.04
498.794	83.28
498.998	62.8
499.202	44.37
499.405	17.75
499.609	48.47
499.812	64.85
500.016	64.85
500.219	13.65
500.423	34.13
500.626	7.51
500.83	52.56
501.033	66.9
501.237	50.52
501.44	66.9
501.643	44.37
501.847	-43.69
502.05	73.04
502.254	25.94
502.457	15.7
502.66	122.2
502.864	111.96
503.067	56.66
503.271	71
503.474	87.38
503.677	132.44
503.88	23.89
504.084	5.46
504.287	62.8
504.49	7.51
504.694	71
504.897	91.48
505.1	44.37
505.303	-33.45
505.507	25.94
505.71	19.8
505.913	44.37
506.116	17.75
506.319	-33.45
506.522	46.42
506.726	66.9
506.929	36.18
507.132	103.76
507.335	36.18
507.538	71
507.741	54.61
507.944	38.23
508.147	38.23
508.35	73.04
508.553	13.65
508.756	23.89
508.959	105.81
509.163	42.32
509.366	114
509.569	32.08
509.771	99.67
509.974	-4.78
510.177	79.19
510.38	11.61
510.583	60.76
510.786	66.9
510.989	56.66
511.192	-6.83
511.395	-41.64
511.598	64.85
511.801	68.95
512.004	-6.83
512.206	101.72
512.409	77.14
512.612	60.76
512.815	25.94
513.018	73.04
513.22	34.13
513.423	30.04
513.626	75.09
513.829	52.56
514.032	68.95
514.234	91.48
514.437	68.95
514.64	79.19
514.842	71
515.045	60.76
515.248	85.33
515.45	56.66
515.653	40.28
515.856	48.47
516.058	138.58
516.261	40.28
516.464	42.32
516.666	134.48
516.869	120.15
517.071	83.28
517.274	7.51
517.477	91.48
517.679	157.01
517.882	93.52
518.084	71
518.287	140.63
518.489	91.48
518.692	44.37
518.894	32.08
519.097	64.85
519.299	60.76
519.501	85.33
519.704	71
519.906	62.8
520.109	101.72
520.311	60.76
520.514	68.95
520.716	21.84
520.918	105.81
521.121	159.06
521.323	116.05
521.525	150.87
521.728	134.48
521.93	132.44
522.132	116.05
522.335	134.48
522.537	56.66
522.739	56.66
522.941	99.67
523.144	116.05
523.346	114
523.548	163.15
523.75	152.91
523.952	167.25
524.155	159.06
524.357	79.19
524.559	85.33
524.761	171.35
524.963	148.82
525.165	97.62
525.368	136.53
525.57	103.76
525.772	109.91
525.974	30.04
526.176	83.28
526.378	114
526.58	159.06
526.782	44.37
526.984	40.28
527.186	114
527.388	163.15
527.59	79.19
527.792	130.39
527.994	132.44
528.196	15.7
528.398	105.81
528.6	30.04
528.802	50.52
529.004	152.91
529.206	71
529.408	-0.68
529.609	34.13
529.811	11.61
530.013	85.33
530.215	128.34
530.417	-15.02
530.619	105.81
530.821	73.04
531.022	77.14
531.224	34.13
531.426	17.75
531.628	60.76
531.829	71
532.031	56.66
532.233	54.61
532.435	5.46
532.636	30.04
532.838	83.28
533.04	73.04
533.241	38.23
533.443	60.76
533.645	-12.97
533.846	97.62
534.048	64.85
534.25	50.52
534.451	48.47
534.653	111.96
534.855	83.28
535.056	3.41
535.258	116.05
535.459	171.35
535.661	109.91
535.862	23.89
536.064	62.8
536.265	38.23
536.467	77.14
536.668	-0.68
536.87	15.7
537.071	73.04
537.273	-15.02
537.474	17.75
537.676	114
537.877	89.43
538.078	124.24
538.28	85.33
538.481	81.24
538.683	136.53
538.884	173.39
539.085	298.32
539.287	208.21
539.488	267.6
539.689	261.46
539.891	283.98
540.092	220.5
540.293	298.32
540.495	230.74
540.696	216.4
540.897	169.3
541.098	261.46
541.3	228.69
541.501	163.15
541.702	99.67
541.903	257.36
542.104	234.83
542.306	212.31
542.507	243.03
542.708	197.97
542.909	197.97
543.11	261.46
543.311	294.22
543.512	279.89
543.713	308.56
543.915	531.79
544.116	1746.23
544.317	9553.09
544.518	21949.45
544.719	33360.73
544.92	42494.67
545.121	49570.4
545.322	54919.7
545.523	58143.2
545.724	60430.78
545.925	58999.25
546.126	52343.35
546.327	37198.62
546.528	24755.16
546.729	15887.46
546.929	9338.05
547.13	4873.48
547.331	2489.65
547.532	1219.91
547.733	626
547.934	445.77
548.135	386.38
548.336	392.53
548.536	290.13
548.737	169.3
548.938	206.16
549.139	161.11
549.34	193.87
549.54	265.55
549.741	146.77
549.942	136.53
550.143	152.91
550.343	204.11
550.544	132.44
550.745	120.15
550.945	150.87
551.146	97.62
551.347	116.05
551.547	103.76
551.748	128.34
551.949	191.83
552.149	101.72
552.35	114
552.551	81.24
552.751	27.99
552.952	27.99
553.152	54.61
553.353	46.42
553.553	64.85
553.754	99.67
553.954	64.85
554.155	58.71
554.356	87.38
554.556	124.24
554.756	66.9
554.957	75.09
555.157	150.87
555.358	7.51
555.558	64.85
555.759	91.48
555.959	116.05
556.159	103.76
556.36	136.53
556.56	159.06
556.761	66.9
556.961	116.05
557.161	146.77
557.362	107.86
557.562	58.71
557.762	109.91
557.963	114
558.163	60.76
558.363	73.04
558.563	126.29
558.764	32.08
558.964	169.3
559.164	54.61
559.364	23.89
559.565	105.81
559.765	103.76
559.965	3.41
560.165	101.72
560.365	19.8
560.565	101.72
560.766	81.24
560.966	17.75
561.166	101.72
561.366	81.24
561.566	95.57
561.766	-0.68
561.966	42.32
562.166	-0.68
562.366	36.18
562.566	68.95
562.766	97.62
562.966	48.47
563.166	58.71
563.366	68.95
563.566	40.28
563.766	83.28
563.966	89.43
564.166	73.04
564.366	36.18
564.566	73.04
564.766	93.52
564.966	34.13
565.166	81.24
565.366	44.37
565.565	-35.5
565.765	-19.11
565.965	77.14
566.165	27.99
566.365	95.57
566.565	77.14
566.764	52.56
566.964	36.18
567.164	38.23
567.364	107.86
567.564	105.81
567.763	50.52
567.963	64.85
568.163	144.72
568.362	36.18
568.562	77.14
568.762	68.95
568.961	34.13
569.161	42.32
569.361	95.57
569.56	66.9
569.76	83.28
569.96	167.25
570.159	48.47
570.359	154.96
570.558	87.38
570.758	118.1
570.958	101.72
571.157	120.15
571.357	52.56
571.556	185.68
571.756	85.33
571.955	138.58
572.155	99.67
572.354	38.23
572.554	210.26
572.753	114
572.953	152.91
573.152	134.48
573.351	77.14
573.551	132.44
573.75	101.72
573.95	81.24
574.149	136.53
574.348	109.91
574.548	152.91
574.747	410.96
574.946	2065.72
575.146	4611.34
575.345	6362.36
575.544	8705.23
575.744	10869.94
575.943	12666
576.142	13122.7
576.342	12453.02
576.541	12301.47
576.74	11121.84
576.939	8961.23
577.138	9405.64
577.338	10642.61
577.537	11570.34
577.736	12487.83
577.935	12749.97
578.134	13055.12
578.333	13360.27
578.533	13331.59
578.732	12254.36
578.931	10683.57
579.13	6853.87
579.329	4529.42
579.528	3128.61
579.727	2131.25
579.926	1307.97
580.125	664.91
580.324	466.25
580.523	286.03
580.722	236.88
580.921	114
581.12	204.11
581.319	89.43
581.518	68.95
581.717	52.56
581.916	83.28
582.115	93.52
582.314	87.38
582.513	101.72
582.712	95.57
582.911	62.8
583.109	64.85
583.308	62.8
583.507	21.84
583.706	56.66
583.905	118.1
584.104	60.76
584.302	58.71
584.501	87.38
584.7	101.72
584.899	15.7
585.098	68.95
585.296	36.18
585.495	32.08
585.694	3.41
585.892	27.99
586.091	52.56
586.29	25.94
586.488	60.76
586.687	50.52
586.886	1.37
587.084	40.28
587.283	120.15
587.482	109.91
587.68	17.75
587.879	93.52
588.077	89.43
588.276	46.42
588.475	11.61
588.673	99.67
588.872	89.43
589.07	25.94
589.269	140.63
589.467	17.75
589.666	140.63
589.864	75.09
590.063	154.96
590.261	21.84
590.46	107.86
590.658	30.04
590.857	34.13
591.055	1.37
591.253	56.66
591.452	23.89
591.65	66.9
591.848	23.89
592.047	66.9
592.245	68.95
592.444	32.08
592.642	32.08
592.84	3.41
593.038	85.33
593.237	-12.97
593.435	138.58
593.633	21.84
593.832	30.04
594.03	95.57
594.228	34.13
594.426	77.14
594.624	1.37
594.823	58.71
595.021	5.46
595.219	34.13
595.417	83.28
595.615	-45.74
595.813	17.75
596.012	-8.87
596.21	56.66
596.408	27.99
596.606	11.61
596.804	3.41
597.002	42.32
597.2	134.48
597.398	85.33
597.596	17.75
597.794	101.72
597.992	56.66
598.19	64.85
598.388	19.8
598.586	93.52
598.784	21.84
598.982	-23.21
599.18	97.62
599.378	7.51
599.576	13.65
599.774	64.85
599.972	34.13
600.17	44.37
600.368	42.32
600.565	19.8
600.763	15.7
600.961	50.52
601.159	23.89
601.357	48.47
601.555	52.56
601.752	15.7
601.95	34.13
602.148	118.1
602.346	44.37
602.544	73.04
602.741	114
602.939	50.52
603.137	87.38
603.334	56.66
603.532	34.13
603.73	116.05
603.927	77.14
604.125	89.43
604.323	105.81
604.52	56.66
604.718	36.18
604.916	93.52
605.113	-39.59
605.311	124.24
605.508	-49.83
605.706	48.47
605.904	48.47
606.101	66.9
606.299	46.42
606.496	60.76
606.694	-12.97
606.891	122.2
607.089	68.95
607.286	27.99
607.484	36.18
607.681	126.29
607.879	58.71
608.076	40.28
608.273	-2.73
608.471	81.24
608.668	21.84
608.866	126.29
609.063	64.85
609.26	71
609.458	77.14
609.655	71
609.852	54.61
610.05	42.32
610.247	99.67
610.444	116.05
610.642	101.72
610.839	48.47
611.036	1.37
611.233	111.96
611.431	95.57
611.628	150.87
611.825	77.14
612.022	71
612.22	99.67
612.417	109.91
612.614	77.14
612.811	95.57
613.008	25.94
613.205	85.33
613.402	30.04
613.6	73.04
613.797	118.1
613.994	50.52
614.191	68.95
614.388	40.28
614.585	64.85
614.782	30.04
614.979	85.33
615.176	56.66
615.373	11.61
615.57	13.65
615.767	-8.87
615.964	83.28
616.161	42.32
616.358	27.99
616.555	-21.16
616.752	36.18
616.949	7.51
617.146	27.99
617.343	66.9
617.539	-31.4
617.736	71
617.933	44.37
618.13	64.85
618.327	52.56
618.524	5.46
618.721	36.18
618.917	126.29
619.114	114
619.311	15.7
619.508	46.42
619.704	-4.78
619.901	13.65
620.098	134.48
620.295	40.28
620.491	-2.73
620.688	48.47
620.885	27.99
621.081	58.71
621.278	21.84
621.475	83.28
621.671	58.71
621.868	30.04
622.065	-8.87
622.261	36.18
622.458	15.7
622.655	-15.02
622.851	56.66
623.048	73.04
623.244	-12.97
623.441	13.65
623.637	32.08
623.834	101.72
624.03	79.19
624.227	-12.97
624.423	-10.92
624.62	7.51
624.816	21.84
625.013	13.65
625.209	105.81
625.406	73.04
625.602	44.37
625.798	3.41
625.995	-27.31
626.191	38.23
626.388	58.71
626.584	19.8
626.78	58.71
626.977	58.71
627.173	56.66
627.369	48.47
627.566	1.37
627.762	79.19
627.958	-15.02
628.154	7.51
628.351	62.8
628.547	30.04
628.743	60.76
628.939	-29.35
629.136	60.76
629.332	7.51
629.528	64.85
629.724	77.14
629.92	-0.68
630.116	40.28
630.313	40.28
630.509	93.52
630.705	25.94
630.901	7.51
631.097	38.23
631.293	48.47
631.489	3.41
631.685	50.52
631.881	44.37
632.077	46.42
632.273	48.47
632.469	56.66
632.665	7.51
632.861	30.04
633.057	46.42
633.253	56.66
633.449	36.18
633.645	23.89
633.841	66.9
634.037	27.99
634.233	105.81
634.429	46.42
634.625	93.52
634.821	58.71
635.017	44.37
635.212	32.08
635.408	-0.68
635.604	23.89
635.8	89.43
635.996	17.75
636.191	83.28
636.387	62.8
636.583	44.37
636.779	21.84
636.975	3.41
637.17	-21.16
637.366	30.04
637.562	19.8
637.757	-19.11
637.953	54.61
638.149	40.28
638.345	56.66
638.54	54.61
638.736	17.75
638.931	62.8
639.127	-12.97
639.323	79.19
639.518	91.48
639.714	81.24
639.909	40.28
640.105	23.89
640.301	42.32
640.496	77.14
640.692	73.04
640.887	64.85
641.083	1.37
641.278	60.76
641.474	62.8
641.669	97.62
641.865	93.52
642.06	85.33
642.256	85.33
642.451	40.28
642.646	38.23
642.842	36.18
643.037	11.61
643.233	13.65
643.428	50.52
643.623	40.28
643.819	48.47
644.014	-15.02
644.209	64.85
644.405	19.8
644.6	114
644.795	-4.78
644.99	-6.83
645.186	101.72
645.381	32.08
645.576	23.89
645.771	122.2
645.967	-29.35
646.162	27.99
646.357	7.51
646.552	7.51
646.747	40.28
646.943	21.84
647.138	7.51
647.333	21.84
647.528	93.52
647.723	126.29
647.918	56.66
648.113	44.37
648.308	13.65
648.504	111.96
648.699	64.85
648.894	21.84
649.089	95.57
649.284	46.42
649.479	-23.21
649.674	23.89
649.869	71
650.064	3.41
650.259	73.04
650.454	68.95
650.649	68.95
650.844	25.94
651.038	56.66
651.233	3.41
651.428	3.41
651.623	89.43
651.818	136.53
652.013	7.51
652.208	15.7
652.403	52.56
652.597	-29.35
652.792	-4.78
652.987	27.99
653.182	99.67
653.377	15.7
653.571	3.41
653.766	93.52
653.961	73.04
654.156	79.19
654.35	48.47
654.545	21.84
654.74	54.61
654.935	-6.83
655.129	64.85
655.324	3.41
655.519	-10.92
655.713	52.56
655.908	116.05
656.102	73.04
656.297	50.52
656.492	50.52
656.686	97.62
656.881	25.94
657.075	36.18
657.27	1.37
657.464	71
657.659	62.8
657.854	93.52
658.048	52.56
658.243	116.05
658.437	40.28
658.631	13.65
658.826	-21.16
659.02	7.51
659.215	-29.35
659.409	15.7
659.604	42.32
659.798	25.94
659.992	40.28
660.187	-15.02
660.381	-64.17
660.576	46.42
660.77	60.76
660.964	46.42
661.159	54.61
661.353	-68.27
661.547	-35.5
661.742	-27.31
661.936	27.99
662.13	-101.03
662.324	15.7
662.519	-21.16
662.713	19.8
662.907	138.58
663.101	-0.68
663.295	87.38
663.49	15.7
663.684	11.61
663.878	46.42
664.072	-0.68
664.266	50.52
664.46	66.9
664.654	19.8
664.849	-19.11
665.043	-51.88
665.237	-0.68
665.431	91.48
665.625	126.29
665.819	124.24
666.013	154.96
666.207	157.01
666.401	128.34
666.595	245.07
666.789	193.87
666.983	238.93
667.177	167.25
667.371	66.9
667.565	132.44
667.759	48.47
667.953	36.18
668.147	-6.83
668.34	60.76
668.534	62.8
668.728	77.14
668.922	54.61
669.116	73.04
669.31	25.94
669.504	66.9
669.697	23.89
669.891	79.19
670.085	3.41
670.279	-8.87
670.473	27.99
670.666	89.43
670.86	64.85
671.054	-19.11
671.248	25.94
671.441	87.38
671.635	83.28
671.829	79.19
672.022	42.32
672.216	48.47
672.41	-2.73
672.603	25.94
672.797	38.23
672.99	56.66
673.184	103.76
673.378	83.28
673.571	107.86
673.765	91.48
673.958	34.13
674.152	17.75
674.345	118.1
674.539	140.63
674.733	124.24
674.926	73.04
675.12	85.33
675.313	79.19
675.506	87.38
675.7	46.42
675.893	62.8
676.087	36.18
676.28	58.71
676.474	30.04
676.667	52.56
676.86	52.56
677.054	56.66
677.247	9.56
677.441	-25.26
677.634	91.48
677.827	-8.87
678.02	48.47
678.214	42.32
678.407	71
678.6	103.76
678.794	19.8
678.987	56.66
679.18	79.19
679.373	36.18
679.567	85.33
679.76	30.04
679.953	38.23
680.146	44.37
680.339	38.23
680.533	23.89
680.726	79.19
680.919	-10.92
681.112	-17.07
681.305	-2.73
681.498	73.04
681.691	71
681.884	21.84
682.077	66.9
682.271	66.9
682.464	38.23
682.657	71
682.85	89.43
683.043	17.75
683.236	126.29
683.429	91.48
683.622	107.86
683.815	9.56
684.008	36.18
684.201	134.48
684.393	91.48
684.586	38.23
684.779	64.85
684.972	46.42
685.165	38.23
685.358	-2.73
685.551	150.87
685.744	9.56
685.937	85.33
686.129	64.85
686.322	21.84
686.515	38.23
686.708	85.33
686.901	101.72
687.093	34.13
687.286	68.95
687.479	48.47
687.672	-17.07
687.864	48.47
688.057	148.82
688.25	120.15
688.442	130.39
688.635	146.77
688.828	79.19
689.02	144.72
689.213	120.15
689.406	179.54
689.598	183.63
689.791	273.75
689.984	197.97
690.176	232.79
690.369	83.28
690.561	154.96
690.754	120.15
690.946	148.82
691.139	111.96
691.331	118.1
691.524	13.65
691.716	56.66
691.909	169.3
692.101	93.52
692.294	154.96
692.486	126.29
692.679	154.96
692.871	128.34
693.063	93.52
693.256	62.8
693.448	101.72
693.641	132.44
693.833	421.2
694.025	1787.19
694.218	4394.26
694.41	6714.61
694.602	9473.22
694.795	11437.22
694.987	14011.52
695.179	14611.57
695.372	15201.39
695.564	16356.44
695.756	15504.49
695.948	13046.93
696.14	9503.94
696.333	7697.63
696.525	6192.37
696.717	4560.14
696.909	3464.48
697.101	2596.14
697.294	1991.99
697.486	1367.36
697.678	990.53
697.87	582.99
698.062	367.95
698.254	208.21
698.446	150.87
698.638	150.87
698.83	138.58
699.022	181.59
699.215	46.42
699.407	56.66
699.599	56.66
699.791	62.8
699.983	7.51
700.175	15.7
700.367	130.39
700.558	64.85
700.75	109.91
700.942	101.72
701.134	95.57
701.326	107.86
701.518	111.96
701.71	140.63
701.902	171.35
702.094	142.68
702.286	122.2
702.477	91.48
702.669	169.3
702.861	132.44
703.053	17.75
703.245	62.8
703.436	95.57
703.628	105.81
703.82	77.14
704.012	183.63
704.203	564.56
704.395	1291.59
704.587	1840.44
704.779	2583.85
704.97	3052.84
705.162	3136.81
705.354	3661.09
705.545	3962.14
705.737	3886.36
705.929	3923.23
706.12	3439.9
706.312	2706.73
706.503	1969.46
706.695	1525.05
706.887	1244.48
707.078	1047.88
707.27	765.26
707.461	554.32
707.653	396.62
707.844	318.8
708.036	249.17
708.227	216.4
708.419	107.86
708.61	34.13
708.802	21.84
708.993	-12.97
709.185	13.65
709.376	89.43
709.567	99.67
709.759	48.47
709.95	122.2
710.141	77.14
710.333	79.19
710.524	38.23
710.716	11.61
710.907	85.33
711.098	68.95
711.289	71
711.481	21.84
711.672	-21.16
711.863	13.65
712.055	116.05
712.246	193.87
712.437	197.97
712.628	400.72
712.82	509.26
713.011	564.56
713.202	607.56
713.393	718.15
713.584	718.15
713.775	771.4
713.967	630.09
714.158	542.03
714.349	394.58
714.54	347.47
714.731	314.7
714.922	236.88
715.113	195.92
715.304	89.43
715.495	146.77
715.686	77.14
715.877	91.48
716.068	64.85
716.259	60.76
716.45	150.87
716.641	21.84
716.832	38.23
717.023	85.33
717.214	73.04
717.405	27.99
717.596	50.52
717.787	40.28
717.978	-8.87
718.169	32.08
718.36	54.61
718.55	93.52
718.741	120.15
718.932	23.89
719.123	77.14
719.314	38.23
719.505	68.95
719.695	58.71
719.886	81.24
720.077	91.48
720.268	34.13
720.458	44.37
720.649	109.91
720.84	54.61
721.031	101.72
721.221	64.85
721.412	-2.73
721.603	77.14
721.793	83.28
721.984	38.23
722.175	87.38
722.365	85.33
722.556	64.85
722.746	81.24
722.937	105.81
723.128	23.89
723.318	73.04
723.509	38.23
723.699	95.57
723.89	58.71
724.08	150.87
724.271	48.47
724.461	32.08
724.652	212.31
724.842	808.26
725.033	1629.5
725.223	2131.25
725.414	2471.22
725.604	3083.56
725.794	3419.43
725.985	3765.53
726.175	3921.18
726.366	3955.99
726.556	3628.32
726.746	2862.38
726.937	2334
727.127	1865.02
727.317	1592.64
727.508	1162.56
727.698	902.47
727.888	755.02
728.079	564.56
728.269	413.01
728.459	363.86
728.649	206.16
728.84	208.21
729.03	161.11
729.22	130.39
729.41	89.43
729.6	44.37
729.791	87.38
729.981	87.38
730.171	111.96
730.361	27.99
730.551	-12.97
730.741	23.89
730.931	138.58
731.121	85.33
731.311	19.8
731.502	15.7
731.692	79.19
731.882	89.43
732.072	85.33
732.262	97.62
732.452	142.68
732.642	126.29
732.832	91.48
733.022	83.28
733.212	111.96
733.402	75.09
733.591	175.44
733.781	179.54
733.971	140.63
734.161	140.63
734.351	89.43
734.541	32.08
734.731	87.38
734.921	132.44
735.111	167.25
735.3	144.72
735.49	161.11
735.68	247.12
735.87	621.9
736.06	1686.84
736.249	2770.22
736.439	4228.37
736.629	4633.87
736.819	5594.37
737.008	6046.97
737.198	6276.34
737.388	6210.81
737.577	6061.3
737.767	5563.65
737.957	4562.19
738.146	3745.05
738.336	3024.17
738.526	2485.55
738.715	1838.39
738.905	1486.14
739.094	1242.43
739.284	816.46
739.474	669
739.663	519.5
739.853	376.14
740.042	279.89
740.232	179.54
740.421	122.2
740.611	128.34
740.8	99.67
740.99	114
741.179	118.1
741.369	136.53
741.558	138.58
741.748	101.72
741.937	64.85
742.126	144.72
742.316	107.86
742.505	138.58
742.695	97.62
742.884	114
743.073	105.81
743.263	87.38
743.452	142.68
743.641	44.37
743.831	91.48
744.02	122.2
744.209	126.29
744.398	148.82
744.588	177.49
744.777	247.12
744.966	175.44
745.155	152.91
745.345	114
745.534	238.93
745.723	122.2
745.912	152.91
746.101	191.83
746.29	148.82
746.48	218.45
746.669	185.68
746.858	206.16
747.047	193.87
747.236	236.88
747.425	234.83
747.614	296.27
747.803	859.46
747.992	2270.51
748.181	5190.92
748.37	9039.05
748.559	12561.56
748.748	14425.21
748.937	15645.8
749.126	17136.72
749.315	18934.84
749.504	20773.91
749.693	20524.06
749.882	19520.56
750.071	17089.62
750.26	14847.09
750.449	13417.61
750.638	12135.58
750.826	10902.7
751.015	8815.82
751.204	6665.46
751.393	5223.69
751.582	4115.73
751.771	3286.31
751.959	2229.56
752.148	1690.94
752.337	1201.47
752.526	881.99
752.714	726.35
752.903	427.34
753.092	365.9
753.281	300.37
753.469	314.7
753.658	142.68
753.847	230.74
754.035	210.26
754.224	197.97
754.413	83.28
754.601	140.63
754.79	83.28
754.979	138.58
755.167	62.8
755.356	91.48
755.544	13.65
755.733	27.99
755.921	68.95
756.11	66.9
756.298	146.77
756.487	73.04
756.675	95.57
756.864	167.25
757.052	161.11
757.241	142.68
757.429	130.39
757.618	46.42
757.806	204.11
757.995	212.31
758.183	300.37
758.371	175.44
758.56	195.92
758.748	232.79
758.937	212.31
759.125	193.87
759.313	206.16
759.502	97.62
759.69	120.15
759.878	212.31
760.066	154.96
760.255	150.87
760.443	103.76
760.631	136.53
760.819	273.75
761.008	1336.64
761.196	4791.56
761.384	9888.96
761.572	14120.06
761.761	19412.01
761.949	22381.57
762.137	24257.51
762.325	27134.9
762.513	27925.42
762.701	29229.98
762.889	29113.24
763.077	25809.87
763.266	20636.7
763.454	16653.4
763.642	14337.15
763.83	11928.74
764.018	9526.47
764.206	7482.6
764.394	5410.05
764.582	4068.63
764.77	3114.28
764.958	2102.58
765.146	1406.27
765.334	1066.31
765.522	689.48
765.71	533.84
765.898	380.24
766.085	240.98
766.273	243.03
766.461	200.02
766.649	179.54
766.837	243.03
767.025	136.53
767.213	183.63
767.401	279.89
767.588	228.69
767.776	181.59
767.964	154.96
768.152	81.24
768.339	120.15
768.527	97.62
768.715	89.43
768.903	81.24
769.09	99.67
769.278	30.04
769.466	122.2
769.654	173.39
769.841	259.41
770.029	976.2
770.217	2815.27
770.404	5086.47
770.592	7255.27
770.779	9784.51
770.967	11875.49
771.155	13454.47
771.342	14670.97
771.53	15250.54
771.717	14677.11
771.905	14742.64
772.092	13282.44
772.28	10302.65
772.467	7963.87
772.655	6382.84
772.842	5074.18
773.03	4134.17
773.217	3286.31
773.405	2489.65
773.592	1928.5
773.78	1514.81
773.967	1021.25
774.154	761.16
774.342	542.03
774.529	343.38
774.717	255.31
774.904	191.83
775.091	163.15
775.279	101.72
775.466	95.57
775.653	87.38
775.841	120.15
776.028	140.63
776.215	183.63
776.402	60.76
776.59	73.04
776.777	19.8
776.964	101.72
777.151	73.04
777.338	87.38
777.526	79.19
777.713	85.33
777.9	111.96
778.087	75.09
778.274	42.32
778.461	7.51
778.649	-12.97
778.836	-15.02
779.023	1.37
779.21	56.66
779.397	122.2
779.584	46.42
779.771	79.19
779.958	73.04
780.145	36.18
780.332	71
780.519	44.37
780.706	130.39
780.893	9.56
781.08	64.85
781.267	109.91
781.454	42.32
781.641	25.94
781.828	73.04
782.015	50.52
782.202	25.94
782.388	56.66
782.575	118.1
782.762	87.38
782.949	122.2
783.136	79.19
783.323	60.76
783.509	44.37
783.696	52.56
783.883	71
784.07	124.24
784.257	68.95
784.443	116.05
784.63	73.04
784.817	116.05
785.004	105.81
785.19	103.76
785.377	9.56
785.564	25.94
785.75	73.04
785.937	30.04
786.124	50.52
786.31	56.66
786.497	118.1
786.683	11.61
786.87	91.48
787.057	19.8
787.243	93.52
787.43	44.37
787.616	114
787.803	56.66
787.989	87.38
788.176	132.44
788.362	38.23
788.549	140.63
788.735	32.08
788.922	46.42
789.108	81.24
789.295	79.19
789.481	66.9
789.668	140.63
789.854	140.63
790.04	200.02
790.227	50.52
790.413	62.8
790.599	118.1
790.786	77.14
790.972	36.18
791.158	128.34
791.345	60.76
791.531	21.84
791.717	95.57
791.904	87.38
792.09	71
792.276	142.68
792.462	208.21
792.649	671.05
792.835	1633.6
793.021	2460.98
793.207	3622.17
793.393	4599.06
793.58	5192.97
793.766	5889.28
793.952	6079.74
794.138	6169.85
794.324	6790.38
794.51	6444.27
794.696	5747.97
794.882	4218.13
795.069	3583.26
795.255	3165.48
795.441	2590
795.627	2209.08
795.813	1779
795.999	1328.45
796.185	1039.69
796.371	755.02
796.557	566.6
796.743	464.21
796.929	275.79
797.115	355.66
797.3	152.91
797.486	109.91
797.672	140.63
797.858	128.34
798.044	99.67
798.23	157.01
798.416	406.86
798.602	1072.45
798.788	2131.25
798.973	3323.17
799.159	4316.44
799.345	5518.59
799.531	7474.4
799.717	9190.6
799.902	10263.74
800.088	11263.15
800.274	11920.54
800.46	11709.6
800.645	10769.58
800.831	9995.45
801.017	9323.72
801.202	8383.7
801.388	7406.82
801.574	5977.34
801.759	4613.39
801.945	3912.99
802.131	2964.78
802.316	2432.3
802.502	1946.94
802.687	1529.15
802.873	1004.87
803.058	761.16
803.244	558.41
803.43	435.53
803.615	283.98
803.801	298.32
803.986	220.5
804.172	159.06
804.357	77.14
804.543	206.16
804.728	191.83
804.913	107.86
805.099	99.67
805.284	105.81
805.47	195.92
805.655	105.81
805.84	157.01
806.026	89.43
806.211	138.58
806.397	138.58
806.582	126.29
806.767	101.72
806.953	73.04
807.138	173.39
807.323	148.82
807.508	177.49
807.694	197.97
807.879	132.44
808.064	161.11
808.249	417.1
808.435	1363.26
808.62	2616.62
808.805	3896.6
808.99	4810
809.175	5598.46
809.361	6540.53
809.546	8449.24
809.731	11113.64
809.916	13075.6
810.101	14630.01
810.286	16258.14
810.471	16157.79
810.656	15637.61
810.841	16950.35
811.026	17298.51
811.211	17591.37
811.396	15766.63
811.581	14298.24
811.766	11322.54
811.951	8887.5
812.136	7847.13
812.321	6499.57
812.506	5313.8
812.691	4181.27
812.876	3431.71
813.061	2465.07
813.246	1809.72
813.431	1316.16
813.616	951.62
813.801	673.1
813.986	466.25
814.17	386.38
814.355	296.27
814.54	236.88
814.725	240.98
814.91	81.24
815.094	136.53
815.279	126.29
815.464	105.81
815.649	140.63
815.833	103.76
816.018	56.66
816.203	62.8
816.388	132.44
816.572	140.63
816.757	50.52
816.942	38.23
817.126	95.57
817.311	52.56
817.496	111.96
817.68	44.37
817.865	34.13
818.049	71
818.234	161.11
818.419	136.53
818.603	-0.68
818.788	27.99
818.972	134.48
819.157	132.44
819.341	101.72
819.526	11.61
819.71	34.13
819.895	27.99
820.079	-19.11
820.264	71
820.448	64.85
820.633	42.32
820.817	56.66
821.001	116.05
821.186	58.71
821.37	81.24
821.554	134.48
821.739	126.29
821.923	91.48
822.108	152.91
822.292	81.24
822.476	64.85
822.66	138.58
822.845	146.77
823.029	68.95
823.213	101.72
823.398	120.15
823.582	128.34
823.766	120.15
823.95	118.1
824.134	93.52
824.319	210.26
824.503	718.15
824.687	1977.66
824.871	4482.32
825.055	6718.7
825.239	8871.12
825.423	11084.97
825.608	13024.4
825.792	13659.27
825.976	13964.42
826.16	14734.45
826.344	14453.88
826.528	13472.9
826.712	10738.87
826.896	8191.19
827.08	6886.64
827.264	6077.69
827.448	5203.21
827.632	4218.13
827.816	3321.12
828	2551.09
828.184	2127.16
828.368	1533.25
828.552	1103.17
828.736	812.36
828.919	636.24
829.103	439.63
829.287	318.8
829.471	257.36
829.655	159.06
829.839	128.34
830.023	212.31
830.206	165.2
830.39	75.09
830.574	103.76
830.758	138.58
830.941	81.24
831.125	79.19
831.309	101.72
831.493	81.24
831.676	40.28
831.86	167.25
832.044	27.99
832.227	120.15
832.411	56.66
832.595	159.06
832.778	75.09
832.962	116.05
833.146	15.7
833.329	132.44
833.513	-4.78
833.696	73.04
833.88	79.19
834.064	101.72
834.247	34.13
834.431	81.24
834.614	144.72
834.798	152.91
834.981	95.57
835.165	124.24
835.348	73.04
835.532	32.08
835.715	83.28
835.898	116.05
836.082	62.8
836.265	71
836.449	34.13
836.632	140.63
836.815	75.09
836.999	89.43
837.182	109.91
837.365	109.91
837.549	107.86
837.732	95.57
837.915	66.9
838.099	107.86
838.282	85.33
838.465	124.24
838.648	114
838.832	144.72
839.015	279.89
839.198	824.65
839.381	2108.73
839.565	3765.53
839.748	5143.81
839.931	5702.91
840.114	5848.32
840.297	6096.12
840.48	6835.44
840.663	7550.18
840.847	8033.5
841.03	9411.78
841.213	10296.5
841.396	9753.79
841.579	9835.71
841.762	10984.62
841.945	11523.24
842.128	11361.45
842.311	10812.59
842.494	11152.56
842.677	10183.87
842.86	8582.35
843.043	6913.26
843.226	5604.61
843.409	4478.22
843.592	3724.57
843.775	3349.79
843.958	2864.43
844.141	2354.48
844.323	1883.45
844.506	1418.56
844.689	918.86
844.872	671.05
845.055	437.58
845.238	304.46
845.42	236.88
845.603	93.52
845.786	220.5
845.969	120.15
846.152	101.72
846.334	93.52
846.517	48.47
846.7	54.61
846.883	89.43
847.065	109.91
847.248	54.61
847.431	73.04
847.613	107.86
847.796	99.67
847.979	83.28
848.161	-37.55
848.344	75.09
848.526	-29.35
848.709	7.51
848.892	19.8
849.074	87.38
849.257	114
849.439	27.99
849.622	66.9
849.804	148.82
849.987	30.04
850.169	58.71
850.352	105.81
850.534	222.55
850.717	548.17
850.899	1240.39
851.082	2221.36
851.264	2825.51
851.446	2819.37
851.629	3124.52
851.811	3403.04
851.994	3740.96
852.176	4154.65
852.358	4019.48
852.541	4121.88
852.723	3681.57
852.905	2870.57
853.088	2209.08
853.27	1930.55
853.452	1668.41
853.635	1420.61
853.817	1119.56
853.999	1037.64
854.181	828.74
854.363	572.75
854.546	439.63
854.728	298.32
854.91	191.83
855.092	87.38
855.274	75.09
855.457	101.72
855.639	44.37
855.821	81.24
856.003	23.89
856.185	124.24
856.367	38.23
856.549	91.48
856.731	30.04
856.913	25.94
857.095	3.41
857.277	27.99
857.459	73.04
857.641	91.48
857.823	99.67
858.005	34.13
858.187	64.85
858.369	38.23
858.551	83.28
858.733	-43.69
858.915	-15.02
859.097	46.42
859.279	44.37
859.461	52.56
859.643	58.71
859.824	73.04
860.006	40.28
860.188	68.95
860.37	87.38
860.552	99.67
860.734	56.66
860.915	-0.68
861.097	-21.16
861.279	42.32
861.461	169.3
861.642	71
861.824	13.65
862.006	19.8
862.188	34.13
862.369	42.32
862.551	-2.73
862.733	13.65
862.914	23.89
863.096	21.84
863.278	36.18
863.459	36.18
863.641	46.42
863.822	3.41
864.004	-2.73
864.185	54.61
864.367	36.18
864.549	66.9
864.73	34.13
864.912	34.13
865.093	21.84
865.275	-4.78
865.456	64.85
865.638	122.2
865.819	126.29
866.001	220.5
866.182	281.94
866.363	355.66
866.545	429.39
866.726	515.41
866.908	523.6
867.089	429.39
867.27	550.22
867.452	517.45
867.633	433.49
867.814	421.2
867.996	286.03
868.177	277.84
868.358	251.22
868.54	210.26
868.721	171.35
868.902	103.76
869.083	136.53
869.265	138.58
869.446	97.62
869.627	54.61
869.808	46.42
869.989	34.13
870.171	38.23
870.352	140.63
870.533	75.09
870.714	38.23
870.895	-23.21
871.076	23.89
871.257	-15.02
871.438	-4.78
871.619	-4.78
871.801	-2.73
871.982	60.76
872.163	-15.02
872.344	62.8
872.525	66.9
872.706	111.96
872.887	21.84
873.068	36.18
873.249	7.51
873.43	27.99
873.61	-15.02
873.791	23.89
873.972	1.37
874.153	17.75
874.334	-29.35
874.515	107.86
874.696	-6.83
874.877	-41.64
875.058	81.24
875.238	21.84
875.419	-43.69
875.6	97.62
875.781	40.28
875.962	-10.92
876.142	3.41
876.323	-107.18
876.504	73.04
876.685	89.43
876.865	-47.79
877.046	36.18
877.227	44.37
877.407	17.75
877.588	62.8
877.769	58.71
877.949	19.8
878.13	89.43
878.311	75.09
878.491	32.08
878.672	-21.16
878.853	40.28
879.033	-19.11
879.214	27.99
879.394	3.41
879.575	23.89
879.755	-6.83
879.936	3.41
880.116	60.76
880.297	21.84
880.477	3.41
880.658	-33.45
880.838	3.41
881.019	71
881.199	36.18
881.38	32.08
881.56	9.56
881.74	-21.16
881.921	-0.68
882.101	-8.87
882.281	-6.83
882.462	62.8
882.642	56.66
882.822	81.24
883.003	89.43
883.183	7.51
883.363	71
883.544	-47.79
883.724	7.51
883.904	30.04
884.084	25.94
884.265	27.99
884.445	-2.73
884.625	-0.68
884.805	-4.78
884.985	52.56
885.166	50.52
885.346	79.19
885.526	9.56
885.706	3.41
885.886	83.28
886.066	54.61
886.246	85.33
886.426	-17.07
886.606	62.8
886.787	1.37
886.967	60.76
887.147	3.41
887.327	75.09
887.507	34.13
887.687	-0.68
887.867	42.32
888.047	9.56
888.227	19.8
888.406	-17.07
888.586	-21.16
888.766	52.56
888.946	68.95
889.126	42.32
889.306	-4.78
889.486	34.13
889.666	66.9
889.846	-2.73
890.025	52.56
890.205	11.61
890.385	58.71
890.565	40.28
890.745	-0.68
890.924	7.51
891.104	44.37
891.284	3.41
891.464	5.46
891.643	52.56
891.823	81.24
892.003	-74.41
892.183	23.89
892.362	13.65
892.542	32.08
892.722	77.14
892.901	116.05
893.081	48.47
893.26	83.28
893.44	-15.02
893.62	-33.45
893.799	60.76
893.979	-39.59
894.158	64.85
894.338	5.46
894.517	48.47
894.697	15.7
894.877	42.32
895.056	54.61
895.236	15.7
895.415	5.46
895.594	-2.73
895.774	40.28
895.953	146.77
896.133	126.29
896.312	38.23
896.492	21.84
896.671	42.32
896.85	85.33
897.03	27.99
897.209	-0.68
897.388	-19.11
897.568	23.89
897.747	-37.55
897.926	-47.79
898.106	1.37
898.285	56.66
898.464	105.81
898.643	68.95
898.823	54.61
899.002	32.08
899.181	48.47
899.36	79.19
899.54	50.52
899.719	64.85
899.898	15.7
900.077	-15.02
900.256	87.38
900.435	48.47
900.614	19.8
900.794	44.37
900.973	105.81
901.152	62.8
901.331	48.47
901.51	48.47
901.689	-49.83
901.868	75.09
902.047	-15.02
902.226	7.51
902.405	58.71
902.584	81.24
902.763	66.9
902.942	15.7
903.121	109.91
903.3	1.37
903.479	27.99
903.658	73.04
903.837	56.66
904.015	50.52
904.194	91.48
904.373	64.85
904.552	124.24
904.731	52.56
904.91	-17.07
905.089	89.43
905.267	21.84
905.446	36.18
905.625	38.23
905.804	79.19
905.982	-19.11
906.161	46.42
906.34	62.8
906.519	95.57
906.697	30.04
906.876	58.71
907.055	62.8
907.233	77.14
907.412	36.18
907.591	36.18
907.769	50.52
907.948	-33.45
908.127	50.52
908.305	68.95
908.484	27.99
908.662	71
908.841	21.84
909.019	52.56
909.198	52.56
909.377	13.65
909.555	66.9
909.734	48.47
909.912	124.24
910.09	109.91
910.269	93.52
910.447	87.38
910.626	103.76
910.804	73.04
910.983	68.95
911.161	95.57
911.339	52.56
911.518	36.18
911.696	144.72
911.875	271.7
912.053	595.28
912.231	1998.13
912.41	4498.7
912.588	7017.71
912.766	9082.06
912.944	9833.66
913.123	11267.24
913.301	12616.85
913.479	12852.37
913.657	12786.83
913.836	12971.15
914.014	13304.97
914.192	12092.57
914.37	8740.05
914.548	6548.72
914.727	5113.1
914.905	4037.91
915.083	3306.79
915.261	2948.39
915.439	2563.37
915.617	2229.56
915.795	2071.86
915.973	1801.53
916.151	1676.6
916.329	1404.22
916.508	1154.37
916.686	802.12
916.864	521.55
917.042	388.43
917.22	308.56
917.398	146.77
917.575	130.39
917.753	181.59
917.931	148.82
918.109	122.2
918.287	109.91
918.465	54.61
918.643	36.18
918.821	114
918.999	93.52
919.177	66.9
919.354	93.52
919.532	109.91
919.71	136.53
919.888	56.66
920.066	75.09
920.243	66.9
920.421	97.62
920.599	81.24
920.777	68.95
920.954	124.24
921.132	118.1
921.31	132.44
921.488	91.48
921.665	48.47
921.843	122.2
922.021	118.1
922.198	87.38
922.376	-45.74
922.553	279.89
922.731	632.14
922.909	1076.55
923.086	1371.46
923.264	1801.53
923.441	2020.66
923.619	2284.85
923.796	2786.6
923.974	2878.76
924.152	2647.34
924.329	2696.49
924.507	2813.23
924.684	2161.97
924.861	1627.45
925.039	1105.22
925.216	998.73
925.394	744.78
925.571	701.77
925.749	611.66
925.926	474.45
926.103	554.32
926.281	431.44
926.458	329.04
926.635	359.76
926.813	318.8
926.99	243.03
927.167	122.2
927.345	126.29
927.522	154.96
927.699	89.43
927.876	109.91
928.054	44.37
928.231	7.51
928.408	64.85
928.585	5.46
928.763	40.28
928.94	52.56
929.117	23.89
929.294	48.47
929.471	15.7
929.648	52.56
929.825	-49.83
930.003	17.75
930.18	34.13
930.357	32.08
930.534	27.99
930.711	73.04
930.888	23.89
931.065	30.04
931.242	25.94
931.419	56.66
931.596	58.71
931.773	62.8
931.95	21.84
932.127	66.9
932.304	40.28
932.481	-15.02
932.658	-31.4
932.835	-53.93
933.011	-8.87
933.188	-8.87
933.365	-31.4
933.542	-4.78
933.719	-12.97
933.896	-4.78
934.073	58.71
934.249	83.28
934.426	42.32
934.603	-0.68
934.78	7.51
934.957	3.41
935.133	1.37
935.31	-2.73
935.487	62.8
935.664	9.56
935.84	1.37
936.017	103.76
936.194	64.85
936.37	50.52
936.547	87.38
936.724	177.49
936.9	150.87
937.077	38.23
937.253	99.67
937.43	132.44
937.607	142.68
937.783	154.96
937.96	120.15
938.136	118.1
938.313	97.62
938.489	54.61
938.666	66.9
938.842	52.56
939.019	105.81
939.195	40.28
939.372	17.75
939.548	-2.73
939.725	30.04
939.901	75.09
940.077	89.43
940.254	-19.11
940.43	46.42
940.607	66.9
940.783	50.52
940.959	23.89
941.136	-10.92
941.312	-33.45
941.488	34.13
941.665	75.09
941.841	-53.93
942.017	77.14
942.193	97.62
942.37	50.52
942.546	21.84
942.722	36.18
942.898	-0.68
943.074	54.61
943.251	64.85
943.427	5.46
943.603	-21.16
943.779	27.99
943.955	-37.55
944.131	64.85
944.308	71
944.484	54.61
944.66	40.28
944.836	-25.26
945.012	54.61
945.188	3.41
945.364	17.75
945.54	-10.92
945.716	44.37
945.892	34.13
946.068	34.13
946.244	34.13
946.42	27.99
946.596	-10.92
946.772	-21.16
946.948	46.42
947.124	-6.83
947.3	54.61
947.475	40.28
947.651	-2.73
947.827	-25.26
948.003	-21.16
948.179	44.37
948.355	-0.68
948.531	19.8
948.706	7.51
948.882	-2.73
949.058	-4.78
949.234	64.85
949.409	42.32
949.585	-23.21
949.761	15.7
949.937	79.19
950.112	15.7
950.288	107.86
950.464	64.85
950.639	62.8
950.815	-10.92
950.991	62.8
951.166	11.61
951.342	-66.22
951.518	-2.73
951.693	38.23
951.869	-15.02
952.044	38.23
952.22	36.18
952.395	60.76
952.571	-10.92
952.747	44.37
952.922	-43.69
953.098	19.8
953.273	58.71
953.448	17.75
953.624	-43.69
953.799	83.28
953.975	23.89
954.15	52.56
954.326	32.08
954.501	-29.35
954.676	13.65
954.852	1.37
955.027	-6.83
955.203	-4.78
955.378	85.33
955.553	-10.92
955.729	-21.16
955.904	-2.73
956.079	17.75
956.254	30.04
956.43	62.8
956.605	3.41
956.78	-68.27
956.955	66.9
957.131	-21.16
957.306	9.56
957.481	58.71
957.656	-10.92
957.831	32.08
958.007	-25.26
958.182	-6.83
958.357	-19.11
958.532	68.95
958.707	-33.45
958.882	-25.26
959.057	-25.26
959.232	60.76
959.407	30.04
959.582	46.42
959.757	25.94
959.932	68.95
960.107	-33.45
960.282	-25.26
960.457	11.61
960.632	126.29
960.807	-33.45
960.982	-55.98
961.157	1.37
961.332	-8.87
961.507	54.61
961.682	73.04
961.857	3.41
962.032	15.7
962.206	81.24
962.381	32.08
962.556	19.8
962.731	36.18
962.906	19.8
963.081	25.94
963.255	66.9
963.43	-53.93
963.605	64.85
963.78	-17.07
963.954	36.18
964.129	44.37
964.304	34.13
964.479	83.28
964.653	-29.35
964.828	-12.97
965.003	-4.78
965.177	19.8
965.352	-15.02
965.526	56.66
965.701	-12.97
965.876	-35.5
966.05	99.67
966.225	-27.31
966.399	-60.07
966.574	38.23
966.748	-39.59
966.923	23.89
967.098	58.71
967.272	152.91
967.446	202.07
967.621	419.15
967.795	691.53
967.97	963.91
968.144	1172.8
968.319	1324.35
968.493	1502.53
968.668	1643.84
968.842	1723.71
969.016	1836.35
969.191	1815.87
969.365	1572.16
969.539	1350.98
969.714	1197.38
969.888	933.19
970.062	671.05
970.237	654.67
970.411	675.15
970.585	585.04
970.759	499.02
970.934	482.64
971.108	456.01
971.282	480.59
971.456	406.86
971.63	296.27
971.805	365.9
971.979	263.51
972.153	181.59
972.327	150.87
972.501	193.87
972.675	83.28
972.849	32.08
973.024	15.7
973.198	56.66
973.372	56.66
973.546	83.28
973.72	-66.22
973.894	66.9
974.068	11.61
974.242	15.7
974.416	75.09
974.59	34.13
974.764	71
974.938	44.37
975.112	87.38
975.286	50.52
975.46	-0.68
975.633	-21.16
975.807	48.47
975.981	9.56
976.155	15.7
976.329	50.52
976.503	25.94
976.677	-19.11
976.85	79.19
977.024	83.28
977.198	11.61
977.372	19.8
977.546	23.89
977.719	52.56
977.893	25.94
978.067	13.65
978.241	38.23
978.414	7.51
978.588	-29.35
978.762	-4.78
978.935	50.52
979.109	15.7
979.283	-39.59
979.456	-29.35
979.63	-41.64
979.804	-19.11
979.977	-47.79
980.151	34.13
980.324	-6.83
980.498	52.56
980.671	83.28
980.845	-31.4
981.018	126.29
981.192	46.42
981.365	60.76
981.539	50.52
981.712	101.72
981.886	109.91
982.059	71
982.233	116.05
982.406	159.06
982.58	32.08
982.753	107.86
982.926	50.52
983.1	138.58
983.273	60.76
983.446	91.48
983.62	40.28
983.793	71
983.966	23.89
984.14	-41.64
984.313	95.57
984.486	11.61
984.66	21.84
984.833	89.43
985.006	15.7
985.179	52.56
985.352	9.56
985.526	25.94
985.699	95.57
985.872	27.99
986.045	23.89
986.218	15.7
986.391	-29.35
986.565	15.7
986.738	46.42
986.911	30.04
987.084	-37.55
987.257	3.41
987.43	21.84
987.603	-15.02
987.776	-4.78
987.949	-8.87
988.122	-4.78
988.295	40.28
988.468	46.42
988.641	46.42
988.814	64.85
988.987	15.7
989.16	1.37
989.333	7.51
989.506	36.18
989.679	1.37
989.852	-4.78
990.025	-8.87
990.197	-12.97
990.37	17.75
990.543	36.18
990.716	48.47
990.889	62.8
991.062	81.24
991.234	-17.07
991.407	34.13
991.58	-49.83
991.753	30.04
991.925	56.66
992.098	7.51
992.271	56.66
992.444	44.37
992.616	-29.35
992.789	11.61
992.962	-10.92
993.134	52.56
993.307	71
993.479	23.89
993.652	-66.22
993.825	50.52
993.997	42.32
994.17	-8.87
994.342	-19.11
994.515	75.09
994.688	-8.87
994.86	54.61
995.033	114
995.205	-66.22
995.378	-25.26
995.55	93.52
995.723	50.52
995.895	13.65
996.067	17.75
996.24	13.65
996.412	-49.83
996.585	7.51
996.757	13.65
996.929	13.65
997.102	-6.83
997.274	34.13
997.447	36.18
997.619	38.23
997.791	77.14
997.964	-15.02
998.136	62.8
998.308	46.42
998.48	85.33
998.653	17.75
998.825	-35.5
998.997	48.47
999.169	-15.02
999.342	-25.26
999.514	-10.92
999.686	19.8
999.858	15.7
1000.03	32.08
1000.202	9.56
1000.374	-33.45
1000.547	73.04
1000.719	-29.35
1000.891	48.47
1001.063	-4.78
1001.235	5.46
1001.407	62.8
1001.579	-10.92
1001.751	7.51
1001.923	71
1002.095	27.99
1002.267	60.76
1002.439	-19.11
1002.611	-15.02
1002.783	-19.11
1002.955	-21.16
1003.127	-21.16
1003.299	3.41
1003.471	46.42
1003.643	58.71
1003.815	-23.21
1003.986	-10.92
1004.158	13.65
1004.33	38.23
1004.502	3.41
1004.674	36.18
1004.846	17.75
1005.017	73.04
1005.189	19.8
1005.361	23.89
1005.533	15.7
1005.704	7.51
1005.876	44.37
1006.048	19.8
1006.22	7.51
1006.391	-45.74
1006.563	54.61
1006.735	91.48
1006.906	-51.88
1007.078	116.05
1007.25	-15.02
1007.421	1.37
1007.593	19.8
1007.764	64.85
1007.936	40.28
1008.108	71
1008.279	-35.5
1008.451	-64.17
1008.622	-12.97
1008.794	-27.31
1008.965	30.04
1009.137	7.51
1009.308	23.89
1009.48	-12.97
1009.651	19.8
1009.823	-25.26
1009.994	9.56
1010.165	9.56
1010.337	25.94
1010.508	-23.21
1010.68	27.99
1010.851	-33.45
1011.022	19.8
1011.194	17.75
1011.365	34.13
1011.536	68.95
1011.708	50.52
1011.879	64.85
1012.05	-21.16
1012.222	36.18
1012.393	101.72
1012.564	38.23
1012.735	134.48
1012.906	36.18
1013.078	-43.69
1013.249	40.28
1013.42	-47.79
1013.591	114
1013.762	3.41
1013.934	-17.07
1014.105	-17.07
1014.276	62.8
1014.447	-47.79
1014.618	-0.68
1014.789	3.41
1014.96	-37.55
1015.131	-6.83
1015.302	3.41
1015.473	21.84
1015.644	58.71
1015.815	77.14
1015.986	79.19
1016.157	32.08
1016.328	91.48
1016.499	15.7
1016.67	-4.78
1016.841	38.23
1017.012	-25.26
1017.183	-4.78
1017.354	46.42
1017.525	-41.64
1017.696	-55.98
1017.867	34.13
1018.037	-4.78
1018.208	21.84
1018.379	30.04
1018.55	19.8
1018.721	-0.68
1018.891	-8.87
1019.062	42.32
1019.233	75.09
1019.404	23.89
1019.574	103.76
1019.745	66.9
1019.916	52.56
1020.087	107.86
1020.257	46.42
1020.428	118.1
1020.599	142.68
1020.769	38.23
1020.94	77.14
1021.11	89.43
1021.281	75.09
1021.452	50.52
1021.622	19.8
1021.793	56.66
1021.963	91.48
1022.134	64.85
1022.305	93.52
1022.475	48.47
1022.646	54.61
1022.816	23.89
1022.987	71
1023.157	111.96
1023.327	30.04
1023.498	17.75
1023.668	-47.79
1023.839	-15.02
1024.009	21.84
1024.18	50.52
1024.35	-37.55
1024.52	42.32
1024.691	-35.5
1024.861	66.9
1025.031	-17.07
1025.202	-35.5
1025.372	25.94
1025.542	17.75
1025.713	32.08
1025.883	56.66
1026.053	3.41
1026.223	5.46
1026.394	44.37
1026.564	-53.93
1026.734	-27.31
1026.904	93.52
1027.074	3.41
1027.245	-29.35
1027.415	30.04
1027.585	1.37
1027.755	15.7
1027.925	71
1028.095	-15.02
1028.265	-15.02
1028.435	21.84
1028.606	-45.74
1028.776	11.61
1028.946	-6.83
1029.116	27.99
1029.286	58.71
1029.456	-37.55
1029.626	-10.92
1029.796	58.71
1029.966	-10.92
1030.136	-10.92
1030.306	15.7
1030.475	-2.73
1030.645	56.66
1030.815	1.37
1030.985	77.14
1031.155	-2.73
1031.325	52.56
1031.495	19.8
1031.665	44.37
1031.835	75.09
1032.004	7.51
1032.174	64.85
1032.344	19.8
1032.514	-27.31
1032.684	23.89
1032.853	68.95
1033.023	23.89
1033.193	50.52
1033.362	-70.31
1033.532	15.7
1033.702	19.8
1033.872	-29.35
1034.041	21.84
1034.211	1.37
1034.381	93.52
1034.55	30.04
1034.72	-17.07
1034.889	17.75
1035.059	17.75
1035.229	9.56
1035.398	-51.88
1035.568	13.65
1035.737	71
1035.907	-31.4
1036.076	-8.87
1036.246	-6.83
1036.415	23.89
1036.585	-10.92
1036.754	97.62
1036.924	-10.92
1037.093	-17.07
1037.263	38.23
1037.432	-4.78
1037.601	66.9
1037.771	-25.26
1037.94	-23.21
1038.11	-2.73
1038.279	-6.83
1038.448	-4.78
1038.618	15.7
1038.787	44.37
1038.956	-2.73
1039.126	99.67
1039.295	1.37
1039.464	-6.83
1039.633	-27.31
1039.803	5.46
1039.972	3.41
1040.141	34.13
1040.31	-25.26
1040.479	56.66
1040.649	21.84
1040.818	75.09
1040.987	-41.64
1041.156	9.56
1041.325	-15.02
1041.494	-55.98
1041.663	-45.74
1041.833	-39.59
1042.002	-15.02
1042.171	11.61
1042.34	11.61
1042.509	-8.87
1042.678	13.65
